400, 0.32
200, 0.32
400, 0.32
200, 0.32
200, 0.32
200, 0.32
400, 0.32
100, 0.32
150, 0.32
300, 0.32
175, 0.32
150, 0.32
100, 0.32
200, 0.32
139.999995727539, 0.32
80, 0.512
100, 0.512
250, 0.32
50, 0.32
100, 0.32
100, 0.32
50, 0.32
50, 0.32
150, 0.32
359.999989013672, 0.32
359.999989013672, 0.38399999999999923
100, 0.38399999999999923
250, 0.32
50, 0.32
50, 0.32
50, 0.32
149.999995422363, 0.32
119.999996337891, 0.38399999999999923
100, 0.38399999999999923
50, 0.32
50, 0.32
209.999993591309, 0.32
200, 0.44799999999999957
359.999989013672, 0.32
200, 0.38399999999999923
50, 0.32
50, 0.32
50, 0.32
200, 0.32
100, 0.32
200, 0.32
100, 0.32
50, 0.32
50, 0.32
200, 0.32
50, 0.32
300.000011444092, 0.32
50, 0.4799999999999976
300, 0.32
100, 0.32
50, 0.32
300, 0.32
100, 0.32
100, 0.32
400, 0.32
100, 0.32
503.999984619141, 0.32
188.999994232178, 0.4031999999999994
179.999994506836, 0.4031999999999994
119.999996337891, 0.38399999999999923
239.999992675781, 0.38399999999999923
59.9999981689454, 0.38399999999999923
179.999994506836, 0.38399999999999923
59.9999981689454, 0.38399999999999923
69.9999978637696, 0.44799999999999957
139.999995727539, 0.44799999999999957
139.999995727539, 0.44799999999999957
160, 0.44799999999999957
80, 0.512
69.9999978637696, 0.512
69.9999978637696, 0.44799999999999957
80, 0.44799999999999957
69.9999978637696, 0.512
139.999995727539, 0.44799999999999957
139.999995727539, 0.44799999999999957
69.9999978637696, 0.44799999999999957
225.000008583069, 0.44799999999999957
150.000005722046, 0.4800000000000012
150.000005722046, 0.4800000000000012
75.0000028610231, 0.4800000000000012
75.0000028610231, 0.4800000000000012
150.000005722046, 0.4800000000000012
75.0000028610231, 0.4800000000000012
55.0000016784668, 0.4800000000000012
75.0000028610231, 0.3520000000000016
78.0000026184083, 0.4800000000000012
81.0000019775391, 0.4992000000000008
50, 0.5183999999999991
83.9999974365235, 0.32
87.0000007301331, 0.556800000000001
89.9999972534181, 0.556800000000001
50, 0.5760000000000006
93.0000029090882, 0.32
96.0000023437501, 0.6143999999999981
98.999999697876, 0.6143999999999981
50, 0.6336
102.000000622559, 0.32
104.999996795654, 0.6528
108.000002636719, 0.6720000000000004
50, 0.6912
40, 0.512
80, 0.512
50, 0.512
179.999994506836, 0.1920000000000002
119.999996337891, 0.7680000000000002
119.999996337891, 0.7680000000000002
59.9999981689454, 0.7680000000000002
119.999996337891, 0.7680000000000002
119.999996337891, 0.7680000000000002
119.999996337891, 0.7680000000000002
179.999994506836, 0.7680000000000002
119.999996337891, 0.7680000000000002
59.9999981689454, 0.7680000000000002
119.999996337891, 0.7680000000000002
59.9999981689454, 0.7680000000000002
119.999996337891, 0.7680000000000002
59.9999981689454, 0.7680000000000002
59.9999981689454, 0.7680000000000002
179.999994506836, 0.7680000000000002
59.9999981689454, 0.7680000000000002
119.999996337891, 0.7680000000000002
119.999996337891, 0.7680000000000002
119.999996337891, 0.7680000000000002
119.999996337891, 0.7680000000000002
179.999994506836, 0.7680000000000002
59.9999981689454, 0.7680000000000002
59.9999981689454, 0.7680000000000002
59.9999981689454, 0.7680000000000002
34.9999989318848, 0.44799999999999957
179.999994506836, 0.44799999999999957
59.9999981689454, 0.7679999999999995
119.999996337891, 0.7679999999999995
119.999996337891, 0.7679999999999995
119.999996337891, 0.7679999999999995
119.999996337891, 0.7679999999999995
119.999996337891, 0.7679999999999995
179.999994506836, 0.7679999999999995
59.9999981689454, 0.7680000000000002
119.999996337891, 0.7680000000000002
59.9999981689454, 0.7680000000000002
59.9999981689454, 0.7680000000000002
179.999994506836, 0.7680000000000002
179.999994506836, 0.7680000000000002
59.9999981689454, 0.7680000000000002
119.999996337891, 0.7680000000000002
59.9999981689454, 0.7680000000000002
59.9999981689454, 0.7680000000000002
59.9999981689454, 0.7680000000000002
59.9999981689454, 0.7680000000000002
179.999994506836, 0.7680000000000002
119.999996337891, 0.7680000000000002
59.9999981689454, 0.7680000000000002
55.0000016784668, 0.7040000000000001
55.0000016784668, 0.7040000000000001
44.999998626709, 0.5760000000000006
44.999998626709, 0.5760000000000006
179.999994506836, 0.5760000000000006
220.000006713867, 0.5760000000000006
134.999995880127, 0.7040000000000001
110.000003356934, 0.5760000000000006
165.000005035401, 0.7040000000000007
165.000005035401, 0.7040000000000007
179.999994506836, 0.7040000000000007
119.999996337891, 0.7680000000000002
50, 0.7680000000000002
89.9999972534181, 0.64
200, 0.5760000000000006
179.999994506836, 0.64
179.999994506836, 0.5760000000000006
89.9999972534181, 0.5760000000000006
89.9999972534181, 0.5760000000000006
200, 0.5760000000000006
100, 0.6400000000000006
100, 0.6400000000000006
55.0000016784668, 0.6400000000000006
55.0000016784668, 0.7040000000000001
239.999992675781, 0.7040000000000001
220.000006713867, 0.7680000000000002
200, 0.7680000000000002
89.9999972534181, 0.7680000000000002
89.9999972534181, 0.5760000000000006
134.999995880127, 0.5760000000000006
179.999994506836, 0.5760000000000006
179.999994506836, 0.5760000000000006
69.9999978637696, 0.5760000000000006
89.9999972534181, 0.5760000000000006
44.999998626709, 0.5760000000000006
89.9999972534181, 0.5760000000000006
179.999994506836, 0.5760000000000006
179.999994506836, 0.5760000000000006
89.9999972534181, 0.5760000000000006
134.999995880127, 0.5760000000000006
89.9999972534181, 0.5760000000000006
89.9999972534181, 0.5760000000000006
89.9999972534181, 0.5760000000000006
220.000006713867, 0.5760000000000006
160, 0.7040000000000007
100, 0.64
100, 0.64
50, 0.64
200, 0.64
200, 0.32
50, 0.32
100, 0.32
50, 0.32
100, 0.32
50, 0.32
59.9999981689454, 0.32
59.9999981689454, 0.38399999999999923
59.9999981689454, 0.38399999999999923
59.9999981689454, 0.38399999999999923
239.999992675781, 0.38399999999999923
59.9999981689454, 0.38399999999999923
59.9999981689454, 0.38399999999999923
89.9999972534181, 0.38399999999999923
59.9999981689454, 0.38399999999999923
119.999996337891, 0.38399999999999923
59.9999981689454, 0.38399999999999923
59.9999981689454, 0.38399999999999923
139.999995727539, 0.38399999999999923
69.9999978637696, 0.44799999999999957
69.9999978637696, 0.44799999999999957
160, 0.44799999999999957
80, 0.512
80, 0.512
179.999994506836, 0.512
44.999998626709, 0.5760000000000006
89.9999972534181, 0.5760000000000006
89.9999972534181, 0.5760000000000006
44.999998626709, 0.5760000000000006
89.9999972534181, 0.5760000000000006
34.9999989318848, 0.44799999999999957
80, 0.44799999999999957
50, 0.512
75.0000028610231, 0.64
100, 0.9599999999999996
42.5000008106232, 1.28
44.999998626709, 1.088
255.000004863739, 0.1920000000000002
59.9999981689454, 1.088
179.999994506836, 0.7680000000000002
119.999996337891, 0.7680000000000002
119.999996337891, 0.7680000000000002
59.9999981689454, 0.7680000000000002
179.999994506836, 0.7680000000000002
59.9999981689454, 0.7680000000000002
59.9999981689454, 0.7680000000000002
119.999996337891, 0.7680000000000002
59.9999981689454, 0.7680000000000002
59.9999981689454, 0.512
119.999996337891, 0.7680000000000002
225.000008583069, 0.7680000000000002
119.999996337891, 0.9599999999999996
119.999996337891, 0.7680000000000002
119.999996337891, 0.7680000000000002
59.9999981689454, 0.7680000000000002
119.999996337891, 0.7680000000000002
179.999994506836, 0.7680000000000002
59.9999981689454, 0.7680000000000002
59.9999981689454, 0.7680000000000002
59.9999981689454, 0.7680000000000002
59.9999981689454, 0.7680000000000002
59.9999981689454, 0.7680000000000002
179.999994506836, 0.7680000000000002
59.9999981689454, 0.7680000000000002
59.9999981689454, 0.7680000000000002
119.999996337891, 0.7680000000000002
179.999994506836, 0.7680000000000002
59.9999981689454, 0.7680000000000002
59.9999981689454, 0.7680000000000002
119.999996337891, 0.7680000000000002
179.999994506836, 0.7680000000000002
59.9999981689454, 0.7680000000000002
59.9999981689454, 0.7680000000000002
119.999996337891, 0.7680000000000002
119.999996337891, 0.7680000000000002
59.9999981689454, 0.7680000000000002
179.999994506836, 0.7680000000000002
59.9999981689454, 0.7680000000000002
179.999994506836, 0.7680000000000002
179.999994506836, 0.7680000000000002
59.9999981689454, 0.7680000000000002
59.9999981689454, 0.7680000000000002
59.9999981689454, 0.7680000000000002
179.999994506836, 0.7680000000000002
59.9999981689454, 0.7680000000000002
59.9999981689454, 0.7680000000000002
119.999996337891, 0.7680000000000002
59.9999981689454, 0.7680000000000002
59.9999981689454, 0.7680000000000002
29.9999990844727, 0.7680000000000002
100, 0.5760000000000006
100, 0.32
119.999996337891, 0.32
59.9999981689454, 0.38399999999999923
59.9999981689454, 0.38399999999999923
119.999996337891, 0.38399999999999923
129.999994049073, 0.38399999999999923
64.9999970245363, 0.4159999999999996
129.999994049073, 0.4159999999999996
64.9999970245363, 0.4159999999999996
129.999994049073, 0.4159999999999996
64.9999970245363, 0.4159999999999996
64.9999970245363, 0.4159999999999996
100, 0.4159999999999996
239.999992675781, 0.32
119.999996337891, 0.38399999999999923
239.999992675781, 0.38399999999999923
239.999992675781, 0.38399999999999923
200, 0.38399999999999923
100, 0.32
240, 0.32
480, 0.128
80, 0.128
80, 0.128
119.999996337891, 0.128
179.999994506836, 0.1920000000000002
119.999996337891, 0.1920000000000002
59.9999981689454, 0.1920000000000002
119.999996337891, 0.1920000000000002
120, 0.1920000000000002
80, 0.128
40, 0.128
80, 0.128
60, 0.128
40, 0.128
244.999992523194, 0.128
80, 0.22399999999999978
150, 0.5760000000000006
139.999995727539, 0.32
139.999995727539, 0.44799999999999957
209.999993591309, 0.44799999999999957
200, 0.44799999999999957
69.9999978637696, 0.32
69.9999978637696, 0.44799999999999957
139.999995727539, 0.44799999999999957
139.999995727539, 0.44799999999999957
100, 0.44799999999999957
100, 0.32
100, 0.32
69.9999978637696, 0.32
69.9999978637696, 0.44799999999999957
69.9999978637696, 0.44799999999999957
69.9999978637696, 0.44799999999999957
69.9999978637696, 0.44799999999999957
139.999995727539, 0.44799999999999957
69.9999978637696, 0.44799999999999957
69.9999978637696, 0.44799999999999957
69.9999978637696, 0.44799999999999957
139.999995727539, 0.44799999999999957
69.9999978637696, 0.44799999999999957
69.9999978637696, 0.44799999999999957
50, 0.64
50, 0.64
50, 0.64
50, 0.64
37.5000014305115, 0.64
30, 0.9599999999999996
255.000004863739, 0.128
59.9999981689454, 0.7680000000000002
179.999994506836, 0.7680000000000002
59.9999981689454, 0.7680000000000002
59.9999981689454, 0.7680000000000002
119.999996337891, 0.7680000000000002
179.999994506836, 0.7680000000000002
59.9999981689454, 0.7680000000000002
119.999996337891, 0.7680000000000002
59.9999981689454, 0.7680000000000002
119.999996337891, 0.7680000000000002
179.999994506836, 0.7680000000000002
59.9999981689454, 0.7680000000000002
59.9999981689454, 0.7680000000000002
179.999994506836, 0.7680000000000002
59.9999981689454, 0.7680000000000002
59.9999981689454, 0.7680000000000002
119.999996337891, 0.7680000000000002
119.999996337891, 0.7680000000000002
59.9999981689454, 0.7680000000000002
119.999996337891, 0.7680000000000002
119.999996337891, 0.7680000000000002
59.9999981689454, 0.7680000000000002
59.9999981689454, 0.7680000000000002
119.999996337891, 0.7680000000000002
59.9999981689454, 0.7680000000000002
59.9999981689454, 0.7680000000000002
59.9999981689454, 0.7680000000000002
59.9999981689454, 0.7680000000000002
59.9999981689454, 0.7680000000000002
59.9999981689454, 0.7680000000000002
179.999994506836, 0.7680000000000002
119.999996337891, 0.7680000000000002
59.9999981689454, 0.7680000000000002
119.999996337891, 0.7680000000000002
119.999996337891, 0.7680000000000002
59.9999981689454, 0.7680000000000002
119.999996337891, 0.7680000000000002
179.999994506836, 0.7680000000000002
59.9999981689454, 0.7680000000000002
59.9999981689454, 0.7680000000000002
59.9999981689454, 0.7680000000000002
119.999996337891, 0.7680000000000002
59.9999981689454, 0.7680000000000002
59.9999981689454, 0.7680000000000002
119.999996337891, 0.7680000000000002
59.9999981689454, 0.7680000000000002
179.999994506836, 0.7680000000000002
59.9999981689454, 0.7680000000000002
59.9999981689454, 0.7680000000000002
179.999994506836, 0.7680000000000002
59.9999981689454, 0.7680000000000002
179.999994506836, 0.7680000000000002
59.9999981689454, 0.7680000000000002
179.999994506836, 0.7680000000000002
59.9999981689454, 0.7680000000000002
59.9999981689454, 0.7680000000000002
119.999996337891, 0.7680000000000002
59.9999981689454, 0.7680000000000002
179.999994506836, 0.7680000000000002
59.9999981689454, 0.7680000000000002
59.9999981689454, 0.7680000000000002
100, 0.7680000000000002
50, 0.64
50, 0.64
150, 0.64
50, 0.64
50, 0.64
150, 0.64
50, 0.64
50, 0.64
150, 0.64
150, 0.64
50, 0.64
50, 0.64
100, 0.64
50, 0.64
100, 0.64
44.999998626709, 0.64
165.000005035401, 0.7040000000000001
55.0000016784668, 0.7040000000000001
55.0000016784668, 0.7040000000000001
110.000003356934, 0.7040000000000001
55.0000016784668, 0.7040000000000001
55.0000016784668, 0.7040000000000001
165.000005035401, 0.7040000000000001
55.0000016784668, 0.7040000000000001
55.0000016784668, 0.7040000000000001
55.0000016784668, 0.7040000000000001
55.0000016784668, 0.7040000000000001
110.000003356934, 0.7040000000000001
55.0000016784668, 0.7040000000000001
55.0000016784668, 0.7040000000000001
55.0000016784668, 0.7040000000000001
55.0000016784668, 0.7040000000000001
55.0000016784668, 0.7040000000000001
55.0000016784668, 0.7040000000000001
55.0000016784668, 0.7040000000000001
165.000005035401, 0.7040000000000001
55.0000016784668, 0.7040000000000001
55.0000016784668, 0.7040000000000001
55.0000016784668, 0.7040000000000001
55.0000016784668, 0.7040000000000001
55.0000016784668, 0.7040000000000001
150, 0.7040000000000001
100, 0.64
150, 0.64
50, 0.64
50, 0.64
50, 0.64
165.000005035401, 0.64
55.0000016784668, 0.7040000000000001
55.0000016784668, 0.7040000000000001
150, 0.7040000000000001
50, 0.64
50, 0.64
50, 0.64
50, 0.64
100, 0.64
50, 0.64
50, 0.64
50, 0.64
119.999996337891, 0.64
59.9999981689454, 0.7680000000000002
59.9999981689454, 0.7680000000000002
59.9999981689454, 0.7680000000000002
175, 0.32
244.999992523194, 0.32
70, 0.32
300, 0.128
200, 0.32
719.999978027344, 0.32
359.999989013672, 0.2880000000000003
157.499995193482, 0.2880000000000003
157.499995193482, 0.2880000000000003
157.499995193482, 0.2880000000000003
359.999989013672, 0.2880000000000003
519.99997619629, 0.38399999999999923
0.4198427765192801
