10.876179212520967,750,276.9855591903665
25.292931394493927,750,289.0121104729004
11.506440462438917,750,317.35469115801646
24.145143683776165,750,342.32878932394806
0.0,750,342.32878932394806
15.166416690700398,750,358.949857222426
15.908588651816842,750,259.12352266824405
119.89775892171944,375,180.29420401111068
54.69361879275081,937,89.44271909999159
128.8844964337146,188,89.05054744357274
98.24535676855086,750,306.32009401931174
15.389905418940998,750,313.0399335548102
0.9151902017155391,750,0.0
0.0,750,0.0
9.050721677183725,750,114.42464769445436
130.91106903300712,375,220.73740054644117
85.15569795029376,375,232.4994623649698
30.957512441044088,750,81.2219182240853
88.74407024193144,750,261.1991577321795
129.89498941210388,750,111.50336317797773
53.49615685546206,515,82.54089895318563
169.11185263163628,375,60.03332407921454
180.0,375,60.03332407921454
73.06838918481752,2297,155.00322577288512
145.4089955277947,188,204.26698215815497
27.76680498296423,468,221.30521909796886
147.5660208103357,94,19.209372712298546
175.75287042767278,188,153.9415473483361
56.753326641757006,187,78.92401408950256
145.87116874089827,188,117.47765745025733
110.88067723490428,375,155.6181223379848
58.73133004436891,1031,254.9215565620138
116.06246951035698,94,0.0
170.78897345918335,281,112.44998888394787
131.77712183495885,94,101.67103815738285
165.83973423548764,375,209.3895890439637
63.60025644130987,281,111.04053313993049
120.2430620783214,94,108.30050784737807
151.30509562065657,375,0.0
125.10174005584749,375,213.90184664934523
40.51686535306192,375,201.30822139197394
165.6186054089094,375,0.0
0.0,375,0.0
16.86465923313219,375,265.41476974727686
56.617526513908246,468,151.24152868838638
152.5281231036421,94,31.575306807693888
180.0,94,31.575306807693888
140.04792152962784,94,82.46211251235322
82.51730883104574,375,154.20765220960988
125.53977774999004,375,329.0866147384302
0.0,750,329.0866147384302
28.950113939770517,375,121.37956994486346
62.84822622865789,375,200.7710138441304
18.940657454440128,562,321.7530108639234
167.19865832022617,94,32.38826948140329
180.0,94,32.38826948140329
92.90005962575681,281,105.57461816175325
143.10169592142492,94,114.6298390472568
17.663182307347967,375,208.90667772955464
140.1953599711348,281,75.43208866258443
157.71902108703063,94,10.0
46.475677308149386,187,60.40695324215582
25.460215159756665,188,195.4328529188478
133.93874510666342,281,89.47066558375433
122.13181873497905,94,16.64331697709324
117.10454351447233,187,71.34423592694787
26.824739239177543,188,210.2189334955346
136.32701147445562,281,89.47066558375433
122.13181873497905,94,16.64331697709324
117.10454351447233,187,71.34423592694787
13.32043029505159,188,175.5135322418189
48.83129267779482,375,153.3883959105121
167.22557407095962,93,24.413111231467404
164.36697397713607,94,39.21734310225516
156.24230046930975,94,39.11521443121589
160.90013967904343,94,75.23961722390672
76.43308764375695,750,260.90994615000784
159.70202407684044,281,83.3606621854697
75.59118203461858,94,14.317821063276353
178.19758076199673,187,99.92497185388645
99.57728216136474,188,167.2752223134078
17.571673841313384,750,236.01906702637396
176.18655052666858,187,77.46612162745726
157.6702396449028,188,77.46612162745726
157.8899921927137,187,76.55063683601855
1.6673857385860344,1688,167.90771274721124
105.11874854035764,375,130.36103712382777
31.1912202342167,375,166.35203635663737
60.10391450258459,375,166.97904060090895
0.0,375,166.97904060090895
54.80680881035062,375,123.664869708418
30.27067119315113,375,166.35203635663737
60.10391450258459,375,166.97904060090895
34.90458973848075,375,234.38643305447522
36.62546096676698,375,130.20752666416791
59.45242825109298,187,30.463092423455635
37.88306144316549,188,163.37074401495514
23.655952643591174,750,305.28675044947494
178.6827908294425,187,29.068883707497267
151.17444691178076,188,76.05918747922567
151.17444691178073,187,29.068883707497267
109.20030493209532,188,79.81227975693966
70.79969506790468,187,58.137767414994535
118.09072818945921,188,127.12198865656563
118.09072818945918,187,58.137767414994535
51.67149722294383,188,163.52675622050356
80.0744553677261,187,135.41787178950938
59.793877006959065,188,136.194713553794
27.036157011665576,750,168.92897915988246
54.59327464539194,375,237.25513693068902
44.38025425322155,750,254.04920783186867
137.10126911941651,187,30.364452901377952
87.89713012681884,188,99.62429422585637
126.58578867106112,187,30.364452901377952
49.41267652748458,188,219.73848092675985
15.614145752907945,375,154.40207252495026
159.04422326936782,93,39.11521443121589
148.69201395439262,94,39.408120990476064
134.237457010551,94,40.44749683231337
175.4921090269252,94,97.51410154434076
40.24714044093078,375,147.20054347725758
105.09942403326001,375,114.0175425099138
160.47538021092444,375,137.09121051329294
96.20698581612618,187,48.507731342539614
134.01709928212722,188,109.62207806824317
33.62979515857961,375,137.09121051329294
96.2069858161262,187,48.507731342539614
49.93068430640707,188,180.62391868188442
78.11134196037204,750,225.7432169523594
68.70078913470115,750,181.3201588351389
13.713997348418395,750,249.00803199896987
47.48780590586421,750,420.7196216008947
2.468551675046311,750,135.20355024924456
172.3493490446406,375,0.0
0.0,375,0.0
12.375131422736587,562,242.6375898330677
149.18991975434142,188,148.62705002791384
0.0,375,148.62705002791384
132.13759477388828,281,89.55445270895244
178.1637247088123,94,32.7566787083184
167.9152763314333,937,97.40636529508737
134.07855504957902,188,144.4506836259351
0.0,375,144.4506836259351
75.42592331377074,375,165.0969412193939
37.0273602820205,94,40.11234224026316
179.99999999999997,94,40.11234224026316
178.57325189729272,93,40.049968789001575
155.05042317065988,94,74.46475676452586
94.47787957384965,375,279.5084971874737
26.361875505611607,375,112.8007092176286
62.496011089226805,375,264.6828290615015
14.874870373879332,94,60.41522986797286
155.55604521958347,94,61.0
146.57518881739622,93,59.90826320300064
140.66627058154378,94,60.728905802755904
71.26420700979348,562,115.03912377969506
13.80935207054091,188,290.68883707497264
8.722492546147425,562,181.06904760339356
0.0,188,181.06904760339356
0.0,562,181.06904760339356
0.11300928050067682,188,182.00274723201295
11.931220205511831,562,114.28035701729323
121.94315440409194,188,206.6712365086153
13.643708011250936,562,145.08618128546908
0.3089059761028423,188,144.46106741956464
68.20488505268196,750,280.81488564533043
99.7842769307849,750,270.675081970986
2.1492880248602546,562,211.20606051910536
104.2784562694554,188,173.85051049680584
34.85366363144641,562,195.143536915779
32.68262966249672,188,224.72205054244233
20.347428978663572,562,226.00884938426637
17.72182072462311,188,175.82377541163197
0.0,562,175.82377541163197
58.74195540651837,188,124.19742348374221
0.0,562,124.19742348374221
161.0678513909667,188,137.90576492663388
61.6908793633293,281,94.19129471453293
140.7733191769678,94,19.1049731745428
88.78828405253773,187,89.10667763978185
59.51911234501134,188,97.74456506629922
138.21833101086304,562,271.1180554666177
96.89396543631868,188,127.06297651164952
17.728922757026723,562,307.6052665348888
87.96126132246307,188,107.64757312638311
19.84154376564846,562,292.9573347776089
81.57303097851933,188,89.44271909999159
53.89648608893587,562,247.42069436488129
179.69142350974155,188,81.04936767180853
145.45042684596262,562,102.88342918079665
0.0,188,102.88342918079665
109.68031308969034,562,168.2914139223983
72.78392641220927,188,105.11898020814318
0.0,562,105.11898020814318
0.0,188,105.11898020814318
178.60312035970944,562,88.19297024139736
42.64922094081094,188,244.7304639802736
166.53158511168894,562,0.0
118.40809130832015,188,180.76780686836912
61.59190869167988,562,0.0
41.987212495816664,188,174.89711261195822
151.35203640754676,281,99.68951800465283
166.6607510966366,94,0.0
54.7275785514016,187,100.43903623591775
150.18779114354993,188,136.61991070118586
60.0958326274351,93,48.33218389437829
155.55604521958347,94,49.0
154.48612957246576,94,48.75448697299562
161.78690044759097,94,63.655321851358195
141.6288550629119,93,64.28063471995279
151.4455844434966,94,68.54195795277518
138.35789242967985,94,72.91776189653656
141.15064846650284,94,80.2807573457052
95.14476772216467,375,195.1665955024066
131.64914701243396,187,39.05124837953327
149.16456526795992,188,39.21734310225516
150.46549498126205,187,39.6232255123179
150.36993975077797,188,39.05124837953327
150.5311299578257,187,39.56008088970496
90.28123056521132,188,133.8992158304148
97.32901331593297,187,232.59621665022843
3.669796313397562,375,155.36408851468863
100.21687962972678,188,80.99382692526635
25.459918075841074,187,177.49647883831386
106.92780033591468,375,186.9545399288287
27.242529120688175,188,198.66806487203723
60.701649294485804,187,186.9786084021378
90.0,188,186.9786084021378
57.04294643748811,187,144.5856147754679
74.71795558629542,188,162.64070831129578
158.0431583968104,93,31.144823004794873
154.33615642009568,94,31.953090617340916
154.33615642009568,93,31.144823004794873
171.05724605159028,95,32.01562118716424
151.8793754745381,187,218.68927728629038
6.186830062448735,281,123.00406497347964
115.45002591968068,94,31.575306807693888
132.17603971075766,188,310.0
27.631604714550917,281,168.1814496310458
135.76714829827827,94,33.60059523282288
112.90320756915075,187,198.600100704909
149.43206293613594,94,0.0
135.0,94,1.4142135623730951
171.45092317958128,187,218.80585001320233
32.51156579499688,188,208.92582415776178
54.926245506651696,281,197.9090700296477
14.036243467926477,94,0.0
159.14554196042167,187,89.88882021697692
94.52328582177081,188,172.66151858477326
87.14282174154772,93,44.384682042344295
158.75246441715984,94,45.0111097397076
160.29202115702128,94,44.27188724235731
177.51044707800082,94,29.120439557122072
148.10920819815428,93,29.120439557122072
167.6446401349165,94,29.5296461204668
141.49934627965456,94,30.463092423455635
106.38081420258942,94,97.30878685915265
104.11609816118715,187,182.40888136272312
0.4668441682969444,375,88.81441324469807
78.27918850119049,188,188.4489320744482
114.1168414554688,93,0.0
0.0,94,0.0
155.32313682966296,94,40.718546143004666
152.53043446394966,94,41.048751503547585
154.29706374746831,93,39.824615503479755
147.3194452566366,94,41.10960958218893
10.746501053019141,188,279.43514453268045
54.350042917373415,281,206.34437234875102
127.95999930342904,94,30.364452901377952
179.78574793610795,187,167.3349933516597
21.303048447676886,188,214.59729728027799
173.78436410029735,93,27.459060435491963
10.491477012331586,282,163.0
44.870077820157576,375,311.8348922106056
40.92489159112,281,145.34441853748632
67.65692410413735,94,92.57429448826494
159.15206990610523,93,42.190046219457976
126.69726274288274,94,56.639209034025185
137.57792680489376,94,42.190046219457976
154.3686739701592,94,91.0659101969557
83.92497136282452,93,41.400483088968905
148.18419772344362,94,41.78516483155236
149.2737024142114,94,41.593268686170845
160.9089802559696,94,81.00617260431454
113.72754036255245,375,184.0108692441835
37.49265333305034,562,231.0
90.0,94,0.0
0.0,94,0.0
18.911080074563863,281,228.32433072276814
155.3082611018602,94,29.0
175.5576887157789,375,250.19992006393608
8.021133715068942,562,297.20026917888214
47.18164140355146,94,0.0
0.0,94,0.0
13.12762197359083,187,290.5942188000305
24.047310590808365,375,316.7349049283959
128.27449417117333,188,212.7016690108472
7.846405568697179,187,66.60330322138685
120.03784474567344,188,66.2872536767062
119.18862906986155,187,65.14598989960932
120.773526184465,188,66.60330322138685
119.37164477549031,187,67.468511173732
119.27665963614835,188,63.89053137985315
40.44949864387138,187,198.6454127333425
147.7500258358164,94,0.0
0.0,94,0.0
66.22765118863529,187,91.7877987534291
0.9587350344984884,188,181.66177363441105
68.11501719517746,187,225.656819085974
46.616066650685745,94,0.0
180.0,94,2.0
2.3468742924872865,281,122.10241602851272
175.58930597905578,94,111.07204868912791
67.33273588259374,187,181.66177363441105
34.44348813049262,188,355.1746049480452
15.383164408382669,281,167.621597653763
148.7228247461107,94,31.04834939252005
62.17423096115357,187,271.02951868754076
36.71010195987398,375,202.41047403728888
42.12183825875956,188,204.26698215815497
7.564851957116929,187,282.4694673765644
99.4057534735974,188,183.3303030052588
26.104427128442122,281,157.78466338652817
110.06199523219632,94,22.02271554554524
174.80174231219047,187,246.07722365143832
34.138005713011324,375,202.41047403728888
46.5166628751318,188,194.02319448973105
11.725538950427193,187,255.56603843233944
25.54645945456784,188,244.8121728999602
85.01991253896425,187,231.22499864850255
31.679482624109482,94,25.709920264364882
179.99999999999997,94,25.709920264364882
136.4029621536045,187,239.26763257908496
43.22756492705771,375,195.2050204272421
124.95290212717492,188,220.6762334280699
0.17191138150143104,187,137.43725841270262
62.100790484784966,188,212.42645786248002
23.41828469862272,281,180.71247881648904
138.10545842841535,94,24.413111231467404
169.9920201985587,187,202.2325394193526
135.0,94,0.0
0.0,94,0.0
86.56636963754949,93,50.08991914547278
180.0,94,50.08991914547278
180.0,94,50.08991914547278
178.81211220344454,94,51.03920062069938
129.90280114336787,187,184.78365728602733
59.40468148302213,188,184.74306482247175
14.204896529690544,187,158.7765725792064
56.09029681827554,188,108.90821823902914
60.19832622037387,187,108.00462953040486
29.50277911932133,188,147.85127662620977
46.705860359820036,187,161.3009609394811
90.0,188,161.3009609394811
90.0,187,161.3009609394811
127.22334817876302,94,19.697715603592208
180.0,94,19.697715603592208
121.46035393125165,375,214.9720912118594
157.95165061498133,750,82.97590011563598
90.29269619973519,187,84.92938243034621
142.08602917139652,188,165.42369842317032
59.00804110164817,562,77.92945527847606
152.87915129417752,188,105.30432089900205
94.93570057145405,187,38.07886552931954
149.77162149216753,188,38.600518131237564
150.7327285547915,187,39.319206502675
98.53043234575712,188,216.20592036297248
10.641762971333122,750,375.54227458436685
0.16615452556813448,750,374.638492416356
21.144597567537147,750,427.9836445473121
2.890871854103164,3000,81.49233092751734
16.001828106891367,750,203.6516633862832
50.87811950180623,937,272.2443755158222
22.191839682787105,563,92.59049627256569
165.78660638585626,562,120.30378215168466
55.999640618510405,188,115.36463929644994
114.62538981218708,750,123.69316876852982
157.16634582208246,750,0.0
27.164985057331943,750,170.84495895401773
30.514352708287618,750,393.6724526811598
86.65063234904433,375,1.0
156.4164100429042,375,214.9534833400008
111.5905608121108,375,232.63920563825866
21.26864754364631,375,272.7288030260097
20.267665075613543,375,275.82965757873103
35.18773534768988,187,79.90619500389191
157.46830854490463,188,239.58505796480713
65.43109411174775,375,243.61444948935193
14.230470573358758,375,317.77035733371986
12.554494728197444,375,222.31509170544405
14.417902118017139,375,298.0771712157776
23.183490538221584,281,117.00427342623003
161.98473603314793,94,39.84971769034255
158.07572627128158,93,39.11521443121589
155.69275281159443,94,47.885279575251516
139.4014032774644,94,48.104053883222775
89.38652675011747,94,99.02019995940222
24.610801721113294,375,202.63267258761604
77.0363114984904,375,265.8759109058209
47.73236419689632,375,222.71281956816046
77.40067535436197,94,56.586217403180434
136.43209618416464,94,57.0
149.74356283647074,93,55.569775957799216
146.82148834060726,94,55.90169943749474
114.15908066043268,562,119.10499569707393
19.48166280155094,188,246.78938388836744
27.485297958684896,562,241.11822826157297
0.0,188,241.11822826157297
0.15521379309458894,562,240.36014644695155
64.71489882430495,188,194.74342094150447
0.0,562,194.74342094150447
29.19748604606447,188,185.0
0.0,562,185.0
127.54379786268282,188,197.25364381932212
1.9555224824356685,750,445.5490994267635
1.5521282985247034,750,248.50150904974402
59.22241457573625,562,132.32157798333574
91.58750863814275,188,145.67086187704115
51.9043138990877,562,84.71717653463199
143.61300803857804,188,217.0829334609241
99.65713143678481,750,130.29965464267354
88.16445581353916,750,366.58968888936306
47.066798567627075,750,212.43822631532208
54.668654920815065,656,202.70421801235415
99.36938509648749,94,0.0
0.0,750,0.0
0.0,750,0.0
0.0,750,0.0
121.39945748334125,562,90.21086409075129
84.69264036345947,188,210.80085388821365
143.2931828801182,750,1.0
1.8391408234083775,750,218.11235636707977
178.16085917659163,750,0.0
9.676271099772261,750,220.1317787144782
6.228884247907075,750,83.15046602394962
180.0,750,83.15046602394962
180.0,750,83.15046602394962
174.64997614187413,750,85.0
150.60202521418407,375,150.63200191194434
41.58546191170706,375,156.37135287513502
24.01510216411782,375,93.33809511662427
4.763641690726182,375,187.32325002519042
159.6961782526657,375,96.79876032264049
119.13082943099353,375,129.72663566130126
111.20394450740594,375,97.73944955850733
103.150744844483,375,130.86252328302402
