16.89633526100269,1875,174.54225849346628
142.0622125927382,1875,78.39005038906404
66.70543674610558,1250,0.0
174.19327309446842,1718,177.91290003819284
5.806726905531578,78,0.0
0.0,79,0.0
10.181822341091381,1093,458.21610622063474
169.81817765890864,78,0.0
0.0,79,0.0
143.59381706328762,1875,222.40728405337808
51.84930722169873,468,197.0913493789111
91.74450984158892,78,0.0
0.0,79,0.0
139.35107795157387,1250,130.4837154590564
40.64892204842612,1250,0.0
12.724355685422369,625,158.90248582070703
0.4290892624242417,625,159.66214329013624
12.295266422998148,625,0.0
0.0,156,0.0
12.295266422998148,469,159.66214329013624
0.0,937,159.66214329013624
163.73233538944348,313,192.41881404893857
37.557697602100475,468,209.97380789041284
156.9044373534629,78,20.518284528683193
154.50050238460486,78,19.924858845171276
165.33683685238887,78,20.024984394500787
161.61348377713404,78,18.681541692269406
177.08916217383222,79,12.649110640673518
166.8274465766731,78,15.264337522473747
172.66154228092452,313,189.77091452590938
66.04576428021568,468,182.00274723201295
90.31480880738911,1094,0.0
89.37040139158974,313,91.00549433962765
178.11135618441443,312,91.02197536858887
83.96040581543497,313,204.65825172711703
171.64695610473788,312,163.02760502442524
1.0544045035218386,156,0.0
55.762537223142466,469,174.18381095842403
123.64065332562838,1250,96.00520819205592
104.42546042350932,313,133.88054376943649
38.341636778949436,312,137.38267721950973
114.5129858066693,156,0.0
58.22306765270134,782,132.92479076530458
100.75730865770356,625,147.92227688891217
42.53424100500224,625,0.0
0.0,1250,0.0
0.0,1250,0.0
89.14913513526972,468,202.02227599945508
90.85086486473027,1094,0.0
24.802660153417477,313,145.41320435228707
53.79861966753589,312,94.89467845985885
146.87318425260517,313,180.46883387443938
88.32317544125065,468,140.12851244482687
35.21622060871419,469,171.81676286090365
54.64347021458292,1250,99.08077512817509
0.0,313,99.08077512817509
149.25722866908967,312,151.23822268196622
151.57095116691386,156,0.0
120.90438268854608,782,165.4962235218677
59.095617311453935,1250,0.0
116.93952806380082,1250,68.42514157822401
27.477500793913087,625,213.00938946440834
0.5379727301122585,156,71.0
180.0,156,71.0
178.38646106711883,156,71.02816342831905
179.97760133831338,157,72.02777242147643
41.22014557565889,625,249.28898892650673
37.805646315628366,937,170.07351351694948
0.0,313,170.07351351694948
54.35586206211531,312,151.5585695366646
13.376344823312166,313,236.34931774811622
52.876248462881634,937,100.07996802557443
2.2906100426385296,938,0.0
177.70938995736148,156,75.05997601918082
180.0,156,75.05997601918082
173.1954014993602,156,76.23647421018367
4.513988458001262,78,0.0
0.0,79,0.0
75.14138555207533,1250,101.39033484509261
115.02430932746734,625,147.31259280862582
42.46245478903802,312,159.80613254815975
34.10980093438161,313,217.24870540465827
12.564241303034066,937,163.88410539158457
156.74281517343692,313,106.55045753069294
60.06348344321262,937,79.00632886041473
74.77982839813639,313,94.64142856064674
151.0599873071606,1250,186.78329689776868
80.81945804237384,468,195.4328529188478
14.620873988631658,469,186.57438194993438
92.65419551340663,313,95.60334722173695
149.2081691124933,1250,185.32404053441098
78.74537496981274,468,198.4263087395419
0.0,469,198.4263087395419
95.30461024678205,156,74.02702209328699
179.1770666000813,157,79.00632886041473
179.27477570094075,468,0.0
65.85445803957835,1719,95.34149149242423
65.85445803957833,156,75.0
179.26547896574522,157,78.00640999302557
52.453465420938876,468,259.8788179132728
78.14129823432536,1407,268.36542251191753
58.415650206065834,625,333.47263755816607
10.274339098852543,625,157.16551784663199
23.78103910148093,156,142.59382875847047
43.2024109366036,390,156.02884348735012
120.22698675259781,79,21.540659228538015
163.751561546685,781,72.3394774656273
96.53508819626097,312,175.025712396779
114.85738740042854,312,166.50825805346713
14.408207795859653,313,240.97302753627844
0.0,468,240.97302753627844
71.11391263029071,157,0.0
8.854308188321848,468,201.40009930484146
171.14569181167818,157,0.0
126.38435181583588,468,283.21016930894274
53.61564818416411,157,0.0
57.528807709151515,312,130.38404810405297
148.62002393441412,156,105.01904589168576
107.7520091516844,157,133.13526955694348
86.3789078493214,234,152.34500319997372
74.77786677373157,78,0.0
32.06739160326048,313,195.88772294352702
14.633963002065656,312,142.89856542317
55.87755794570228,313,131.68523075880606
125.44931977290103,468,216.3792966066763
36.41784127881087,469,186.27130750601393
154.90485710753265,313,219.66565503054863
33.88618422297645,625,346.0014450836875
44.29754282765725,468,93.34880824091971
166.30777583038866,157,112.50777750893491
91.91485522282393,468,226.101747007846
94.78737210255142,157,153.4177303964571
26.36956078630724,312,287.06271091871196
75.51155187410575,313,130.49521064008442
22.098518919620638,468,224.47494292236718
43.117957326858146,157,141.2834031300209
59.332883610850004,312,318.15876539866065
26.291129218575715,313,220.51077071199947
96.5546892557885,312,90.69729874698585
166.7616704579103,313,99.08582138732059
6.325287906512699,312,188.52055590836773
94.35272203782398,313,84.1486779456457
149.18842680991816,313,126.60568707605516
168.9318204352479,312,114.54256850621083
26.015115335144614,312,231.05410621756974
124.82441139110556,313,227.62249449472256
19.94609374958533,313,159.20113064925135
179.48675820310623,312,148.66068747318505
41.1202967414277,312,203.30272993740147
110.16706665319579,313,108.37435120913067
112.95485993745719,312,199.9449924354196
76.31774183974312,313,206.15528128088303
28.072486935852954,312,222.64770378335368
69.47023121953426,313,123.79418403139947
167.49746872996622,156,19.1049731745428
177.0037815466888,156,19.026297590440446
177.00378154668886,156,19.1049731745428
176.4805469645046,157,69.06518659932803
108.25652735368428,156,70.57619995437555
133.40953216975626,156,71.11258679024411
139.32913247508398,156,70.3420215802759
163.05242363298285,157,81.05553651663777
128.61239308039114,156,90.80198235721508
114.3925570501914,156,90.4267659490264
130.99868862006565,156,99.9599919967984
105.38725633474296,157,100.43903623591775
81.15185414072053,156,182.0164827701052
60.71115256652787,156,213.01643129110957
3.0070712814260503,156,217.63501556505102
43.10080216550629,157,193.13207915827965
120.21092334754724,78,48.79549159502341
148.20592798166848,78,49.47726750741192
141.51980175165698,78,48.33218389437829
134.72651386933313,78,49.040799340956916
159.7174409110834,78,50.0
176.56636963754949,78,50.08991914547278
156.86857918537254,78,49.193495504995376
144.16234704572173,79,49.64876634922564
27.59729586864372,78,40.0
180.0,78,40.0
180.0,78,40.0
180.0,78,40.0
179.1930705448976,156,142.01408380861386
82.27616384515426,78,40.44749683231337
178.42219185822574,79,41.30375285612676
132.53017685463882,234,168.44286865284622
54.42278061353509,78,0.0
77.00538320808349,156,93.39164844888434
0.0,157,93.39164844888434
50.24138915164487,156,128.79829191413992
122.5853379865085,156,125.53883861180172
4.085616779974885,78,8.94427190999916
174.55966796899446,78,9.433981132056603
176.4677054161091,78,8.602325267042627
178.1523897340054,79,7.211102550927978
92.9591799416888,312,155.80115532305913
39.00142048938428,313,355.07745633875436
44.84029092370906,312,228.61539755668252
45.317438851117636,156,140.6840431605518
61.94491687375138,157,275.30528509274933
30.695054980728713,312,243.21389762922678
93.06360416743965,234,265.33940529065785
14.402847657396155,79,0.0
7.913191299265448,312,261.48996156640504
34.47824247634344,156,252.67568145747623
82.27817419986903,78,26.627053911388696
152.58763274321535,79,29.5296461204668
90.84344291135503,312,248.4552273549502
44.89537234081445,234,243.1295950722577
105.75117366345302,79,0.0
55.44562205652511,156,257.41017850893155
38.1798125615105,312,154.983870128475
3.425114003358969,157,213.19005605327843
46.76302632929139,156,165.59287424282482
152.28008438042704,78,18.35755975068582
154.00870712063852,78,17.029386365926403
25.976586570774508,234,212.22865028077618
119.3430472342043,79,0.0
160.73254229906266,156,239.40969069776602
54.98136863560961,156,243.1295950722577
67.09136540936294,78,44.82186966202994
153.52350482584194,78,45.18849411078001
151.32222859395776,78,45.09988913511872
166.9926649442495,79,44.9221548904324
72.2393991642236,312,122.01639234135715
20.577023996804428,156,241.0186714758838
167.95681031752258,78,15.132745950421556
168.5912817971182,79,15.033296378372908
105.6165090420739,312,273.7882393383616
27.661800474389224,234,91.48223871331527
74.14063373339431,79,0.0
110.66875808306494,312,178.48809484108457
41.36900971256068,156,183.412104289766
155.40422845905542,78,17.029386365926403
177.0262689175199,79,18.110770276274835
135.94661136807173,312,217.4235497824465
18.777860964304153,156,144.83784035948617
179.49530109353807,78,18.027756377319946
161.28280824080713,79,17.804493814764857
72.30473572711564,312,138.95682782792647
74.57358787984572,156,248.2780699135548
60.982123959682596,78,17.08800749063506
169.45193458185787,79,17.26267650163207
122.53297620845407,156,230.72927859289987
50.868380010594706,156,235.41665191740367
47.63161302622653,156,156.28499608087785
73.4236983580023,78,23.706539182259394
145.2290082873595,79,24.186773244895647
81.85195346243036,312,112.01785571952357
88.97696981133217,156,203.0
31.504266719204182,78,36.359317925395686
160.12936727973624,78,34.713109915419565
158.35838619961822,78,34.52535300326414
159.04422326936782,78,34.9857113690718
107.22310345723068,157,282.07268566807386
13.740653074842838,78,45.0
180.0,78,45.0
180.0,78,45.0
176.09950625761812,79,44.10215414239989
120.46554491945989,312,221.37072977247917
34.107769332465196,156,204.16659863944446
177.3217962823733,78,9.433981132056603
172.1998121158183,79,7.810249675906654
116.42732120315324,234,119.10079764636339
130.15664803861637,78,17.72004514666935
37.22610785012934,313,401.21440652100216
21.66469209834267,312,122.00409829181969
31.109200051528028,234,248.08063205337092
163.61045966596524,79,0.0
169.92752216256108,312,308.7588055424493
175.63811530006072,78,30.14962686336267
155.26380082493168,78,30.675723300355934
158.01651913599844,78,30.479501308256342
164.18759856096298,79,31.064449134018133
11.4343605864563,312,209.3083849252103
86.53648893024024,156,147.41099009232656
41.14936117608925,78,0.0
0.0,79,0.0
39.74425942009462,156,239.30106560565082
58.037035384659646,312,127.4401820463232
51.01182155946566,157,212.7580785775243
32.71904559490059,156,110.0
106.69924423399362,78,31.32091952673165
148.3693385878688,78,31.04834939252005
83.49177576190137,156,235.28068344001383
39.87459023915824,78,25.298221281347036
176.18592516570965,79,23.769728648009426
177.26684935237034,156,251.44581921360316
40.18767881417887,156,185.53975315279473
51.519801751656985,78,60.41522986797286
145.40771131249005,78,58.309518948453004
145.72690719186318,78,58.89821729050889
144.9227967583781,79,58.9406481131655
92.9411286286872,312,136.8941196691808
142.1037536904841,313,103.58571330062848
21.670597431647096,156,227.705950734714
42.96970168156771,156,159.70284906663375
47.98891468439719,313,317.23808094237364
29.427656813061617,156,241.51397475094478
28.40570242671801,156,168.1071087134628
23.098982249944598,156,256.09568524284043
33.92413885909321,78,31.016124838541646
178.1523897340054,79,31.0
179.2559407971113,156,231.01947969814148
25.43987267616815,156,201.69779374103229
94.50341710980477,156,248.84734276258607
16.160261277132975,157,307.0439707924583
52.327848805966234,312,272.2443755158222
88.67940375374098,234,165.43578814754684
0.6039993970135242,79,36.124783736376884
176.87293535089054,78,35.014282800023196
178.36608911843317,78,35.05709628591621
109.79138011218706,156,123.08127396155761
37.01823273700535,156,228.46443924602357
68.66628412657575,157,137.01459776242822
173.24173195683096,78,15.132745950421556
176.2194314656989,78,15.033296378372908
177.64389973926075,156,186.07794065928394
45.919902365296565,156,262.73180241455356
36.17339289526961,78,16.0312195418814
179.99999999999997,78,16.0312195418814
145.057638414407,157,170.98830369355676
155.75898913830616,78,8.06225774829855
12.132988240942083,156,194.74342094150447
174.99202810795973,78,9.0
43.717472917289825,157,189.5521036549054
15.859620875016656,468,272.5233934912744
68.07052684780115,469,221.02036105300343
29.28196711006772,313,58.69412236331676
127.10665571775114,312,305.1098162957069
23.9472547873506,313,92.61749294814668
37.9834982552771,78,0.0
0.0,78,0.0
86.36181342213534,156,173.34935823359717
22.45007588038382,313,96.13532129243653
32.02473922235035,312,159.928108848945
128.64251510062854,156,110.00454536063498
90.52085637450196,78,0.0
0.0,79,0.0
161.9878905817485,156,171.40011668607463
82.72640393354958,156,180.2720166858961
31.94579543652827,156,103.46496991735899
0.0,469,103.46496991735899
137.12527503222628,156,173.4156855650607
57.20827522362144,78,9.486832980505138
180.0,78,9.486832980505138
180.0,79,9.486832980505138
174.0938588862295,78,9.219544457292887
177.21483357788563,156,100.44899203078147
93.2070076382401,234,96.62815324738438
135.82604051129744,79,14.212670403551895
117.66501113815139,468,178.6644900364927
78.69302916940356,469,361.00554012369395
104.82828125067768,469,137.78606605894515
98.3133179370314,156,115.55085460523432
153.64970632231788,234,99.12618221237011
148.49827073781424,79,12.529964086141668
130.24971552537713,312,160.822883943797
2.7048759857356544,78,9.486832980505138
174.0938588862295,78,9.219544457292887
180.0,78,9.219544457292887
168.56631873457334,79,9.848857801796104
22.237234099105507,468,166.0752841334315
91.72525487547266,78,9.0
174.28940686250036,79,10.04987562112089
174.28940686250036,78,9.0
180.0,78,9.0
79.2157021324374,312,277.90825824361536
2.8146874732412073,235,100.9752444909147
116.40455921724339,78,9.486832980505138
14.676393137450013,156,164.75436261295178
71.71238533300311,156,152.2694979304785
135.058764881459,78,9.055385138137417
179.37040139158972,79,10.04987562112089
179.37040139158972,78,9.055385138137417
180.0,78,9.055385138137417
175.6123173034897,156,176.10224302944013
43.461337620044816,156,267.0748958625651
18.43405464286319,157,227.6071176391459
1.5941561002210562,468,343.02186519229355
20.43845181040076,469,231.4173718630475
138.7822580528641,469,163.97560794215707
43.09276209661192,156,189.1718795170149
28.1477998380269,234,174.34735443934903
78.75451719453713,79,0.0
149.3614146618134,312,151.09268678529745
45.15464854405302,313,244.47699278255203
125.1406907897993,468,121.26417442921878
85.79263029376736,469,289.2075379377239
27.237615570004678,156,178.3704011320264
89.16500397418082,469,186.96791168540125
94.69254412583699,313,157.4960316960399
12.094757077012105,78,9.0
180.0,78,9.0
107.12180848200451,156,220.78496325610584
25.125706117726807,234,147.24808997063425
73.21127113180486,79,11.661903789690601
64.46305596649927,468,401.8009457430383
53.747418206196144,469,207.53072061745462
24.15382591865381,313,358.6474592130829
27.474431626277138,312,138.59292911256333
88.17203175569499,313,133.00375934536586
70.05017150779364,312,245.52392958732148
70.24687659680319,313,290.24127893874777
22.258099497388805,468,329.4237392781522
6.14188682321975,469,242.52834885843757
31.116101731341104,156,198.92712233378333
40.804888291707925,157,198.25236442474022
4.517620151739859,312,354.9042124292131
31.655191137483342,313,314.701445818096
3.8261855463300494,78,0.0
0.0,78,0.0
82.30394827798344,156,186.6815470259447
121.53479190518829,78,47.01063709417264
144.14978143046284,78,48.05205510693585
174.7299800145488,78,47.12748667179272
142.0230508941201,79,48.104053883222775
70.0684477268667,1562,75.0066663703967
178.4176460773814,313,70.00714249274856
179.1815445383114,312,69.0
0.4121927414023361,313,139.00359707575916
38.66859088729214,781,212.55822731665788
50.919216371305524,156,0.0
27.377702771331727,313,252.253840406841
29.149172511365748,468,194.09276132818556
92.86268596529668,157,105.01904589168576
88.9087837747374,156,0.0
51.55418059039276,469,167.26326554267678
0.0,468,167.26326554267678
63.84173125877783,157,109.59014554237986
88.12643986071251,468,109.12836478203089
102.23165608487584,157,138.7515765676196
89.63764490405286,312,173.21951391226105
149.37164766238303,313,186.5502613238588
59.54738864339345,312,163.74675569305182
115.115034960277,313,197.9419106707824
146.58618603778234,781,92.70382947861431
23.52320902045962,156,0.0
65.05023687139666,313,206.24742422634034
31.25835213115822,312,200.21238722916223
84.74845820833711,313,89.82204629154248
179.31779959534333,156,108.4665847162157
64.1171492275787,156,100.42410069301094
100.9993417249965,313,274.15506561068685
28.51982309866109,468,95.69221493935649
124.35433665503967,157,0.0
54.034995000473,312,202.6252698949467
39.50242442951449,313,275.5249534978638
49.34571988674223,468,92.80086206496145
37.116860683270275,157,0.0
33.47627829610267,312,222.9910312097776
44.87328635584004,313,258.08913189051566
27.63850483900954,468,95.26804291051643
140.96448710125313,157,0.0
152.35402463626133,312,237.06539182259397
24.375487440555112,313,245.39967400141344
134.31293480905572,468,112.69871339105873
54.09731049311847,157,189.76301009416983
1.6002987189563438,312,110.76551810017412
173.25994390205304,156,0.0
135.55625222708068,157,145.67086187704115
37.12928320559999,312,218.3575050232989
44.866079450316064,156,133.00375934536586
126.4391104288354,78,0.0
0.0,79,0.0
80.01817071226684,156,126.92123541787639
69.91313434722889,156,102.59142264341595
169.02128178265733,313,177.9100896520487
50.95974727407008,312,108.40664186294121
80.19874339945761,156,114.33722053644648
50.32275070776824,78,0.0
0.0,79,0.0
5.057248532559135,156,113.44161493913951
148.1369631376411,156,212.8755504984074
62.79507878298216,313,221.22612865572637
60.01971550431218,156,19.1049731745428
179.66881421158462,156,27.16615541441225
177.47388308838046,156,45.09988913511872
178.97862753142294,157,82.09750300709517
120.57366363534628,156,98.18350166906862
144.2963281398166,156,98.08159868191383
138.57371346197993,156,98.3107318658548
100.23312273001079,157,99.56907150315303
93.31319570974878,156,105.30906893520614
132.92438745870092,156,104.5609869884557
129.72429446985592,156,98.40731680114035
73.57324702514823,157,185.42114226808118
90.81159493157463,156,213.60009363293827
52.610811374421104,156,200.0099997500125
32.29966898354045,156,283.3407842157567
55.99918094541603,157,277.2183255125822
125.61479611520403,78,45.48626166217664
149.2618548560228,78,44.04543109109048
150.8323866204222,78,44.721359549995796
167.9052429229879,78,44.82186966202994
177.1778447001882,78,44.40720662234904
159.75515798498805,78,44.64302857109943
139.3902955826336,78,33.1058907144937
156.54866421918285,79,46.75467891024384
60.10186325785758,78,34.713109915419565
125.75231003144839,78,33.97057550292606
136.08228522852835,78,33.06055050963308
171.48931967191194,78,34.132096331752024
173.872949146088,156,160.0312469488381
169.36809243673108,78,16.15549442140351
178.75463573323165,79,17.08800749063506
173.76291992354152,78,0.0
115.8289574655203,156,208.86598574205422
31.77582051949379,157,48.25971404805462
119.14545356762167,156,38.07886552931954
28.95685067801495,156,119.60351165413162
114.19320898728876,313,37.94733192202055
154.3348085378264,312,135.07405376311175
84.74469137163042,313,58.034472514187634
19.428628143175956,156,240.05207768315609
17.453694132293993,78,0.0
0.0,78,0.0
88.39211963008626,313,285.112258592997
77.34336807183385,312,182.6307750626931
4.873675741686384,313,263.53178176455305
169.9508017282173,78,18.027756377319946
177.0598997762166,78,18.384776310850235
32.35526177241822,156,202.05444810743464
90.40458352910909,156,205.36065835500236
169.62028975043222,78,15.0
149.03624346792648,79,11.661903789690601
104.2645122980799,312,208.806130178211
70.46664474969987,156,202.2473732833136
34.83949422439001,157,207.5475849052453
34.5104760753249,312,160.15305179733542
0.0,156,160.15305179733542
126.85435770060178,157,230.21728866442677
83.11174172300531,78,13.038404810405298
156.99112991717715,78,24.331050121192877
152.10272896905238,78,28.460498941515414
162.18111108547726,78,18.601075237738275
121.61982745318193,156,196.468827043885
45.32492532302149,78,15.231546211727817
152.71579270637693,79,14.035668847618199
118.22216834669767,234,200.53179299053804
7.145728274736655,78,37.64306044943742
140.68089081796595,78,36.05551275463989
157.61986494804043,78,35.6931365951495
155.8150659663673,78,35.90264614203248
146.0850909513664,79,45.27692569068709
2.2740887687270117,312,251.03187048659777
26.615178705419538,234,83.48652585896721
77.84083735269552,79,17.11724276862369
173.29016319224309,78,17.0
176.6335393365702,78,17.029386365926403
118.43392410149028,156,136.8941196691808
51.22029970340748,313,257.33441277839233
71.81694230597279,312,243.74166652421167
20.569906763493634,156,256.04101233982027
39.60812615219094,313,218.10318658836692
41.995939251770636,156,185.71483516402236
28.99513423245753,234,216.6679487141557
177.06870573724817,79,23.194827009486403
87.19012927903849,312,241.85326129701042
42.961498212486035,156,229.40139493908924
55.7789243923546,157,229.0785891348207
1.8656045761363629,78,17.029386365926403
176.65662385567288,78,17.11724276862369
174.17156718882524,156,195.0230755577401
27.60289341446476,156,253.71243564319033
48.104507052591295,157,229.31419493786248
17.318101349107778,156,199.16073910286636
28.720997083735135,156,175.30829986055994
66.43888919498752,156,171.05846953600397
128.67006712229073,78,10.198039027185569
168.69006752597977,79,13.0
5.460212592148338,312,136.61991070118586
84.7795173039325,156,239.00209204105306
176.58043998405492,78,18.027756377319946
176.82016988013578,78,23.0
53.77273729752942,313,231.81458107720488
30.817657757997196,156,265.18107021429716
5.4096049444733865,78,18.0
176.82016988013578,79,18.027756377319946
173.6403397602715,78,18.027756377319946
176.82016988013578,78,18.0
81.70872850830894,156,201.10196418732463
37.95798669863751,313,90.91754506144565
37.41448724305457,312,148.35430563350698
131.02451157327172,156,128.9728653632228
138.77228360937985,78,0.0
0.0,79,0.0
84.77605240373158,156,175.72990639046048
70.27588563717897,156,299.5413160150032
19.407466608840714,234,198.72845795205075
171.72623949428208,79,17.029386365926403
54.391071497446845,312,230.5515126820902
46.53472291654489,156,271.4000736919576
30.913011991313624,157,279.68553770261343
16.207076163672696,312,277.0072201225087
31.25605439644366,156,180.9447429465692
40.62464299528749,157,223.59114472626146
69.78056790577278,234,205.19746587129188
178.69973540188738,78,15.033296378372908
40.25085928661127,156,185.20529150107996
45.9125645923197,157,270.4071004984891
37.07810735854912,78,44.77722635447622
154.3866184311006,78,45.09988913511872
153.66535956281277,78,44.384682042344295
152.98279309499026,78,44.68780594300866
95.5042511276229,156,137.87675656179326
107.85524739541813,78,13.601470508735444
152.10272896905235,79,11.313708498984761
46.78295047957364,312,257.12448347055556
60.85264156746774,156,293.7771264070775
33.43540177934733,313,160.15305179733542
65.6678547614263,156,188.27904822364064
35.242995466076266,313,132.41223508422476
58.39835089661808,156,222.78464938141497
46.95855775035545,156,250.28184113115358
19.84643394527586,78,17.029386365926403
176.65662385567288,78,17.11724276862369
157.85954689950051,157,190.66462702871763
73.9688042569874,312,171.26879458909028
0.0,156,171.26879458909028
60.89055628231418,157,145.16542288024377
136.05483824244732,312,284.17600180170035
29.662599238361775,156,189.65231345807516
58.98756397283152,78,17.029386365926403
179.81336945643446,79,18.027756377319946
179.9838921062683,156,197.3068675946177
47.7102031001746,156,206.15528128088303
71.94365213919231,156,194.99743588057768
27.19502908832405,157,213.17832910500073
103.53001434808688,156,183.88311504866346
118.23744553816725,78,0.0
0.0,78,0.0
65.29176766799404,156,179.42686532400882
35.97129179041329,157,83.72574275573791
174.38217007338548,78,44.77722635447622
158.89991625153357,78,44.04543109109048
142.3016210104741,78,45.221676218380054
172.82212778093242,78,44.598206241955516
159.04422326936782,78,44.01136216933077
135.12982405164382,78,42.5440947723653
134.40672171247297,78,44.94441010848846
147.5854111662039,79,44.91102314577124
143.90302506010215,156,170.30854353202602
29.147897128657064,469,194.0412327316027
0.037686321804659695,156,94.02127418834527
178.7811247648687,469,0.0
178.7811247648687,156,94.02127418834527
75.4609648545414,313,209.88806540630173
10.476669752144772,781,119.50732195141852
84.71875937155487,312,0.0
94.7334383305755,313,157.53729717117784
72.30515981843249,156,129.29423807734048
98.56269649599648,469,221.65288177689007
55.71476770458044,156,100.34440691936945
43.109594593125394,156,187.98404187589966
77.65833634388079,157,130.01538370516005
0.0,781,130.01538370516005
66.45403856872177,156,98.6154146165801
64.87262588938708,469,93.08598175880189
177.53718332408314,156,130.0
90.0,469,0.0
55.23104344451823,156,147.29901561110313
125.30946674261244,313,106.00471687618433
93.89215828155919,781,129.38701635017324
36.9575587564809,312,163.67040050051813
33.663067295279234,313,151.02979838429235
34.284832933218155,156,174.25555945220228
175.42607874009911,312,12.36931687685298
180.0,313,12.36931687685298
171.41637851988605,312,13.0
175.81508387488157,313,12.649110640673518
175.8150838748816,312,13.0
144.88765947459848,313,171.04970037974343
83.95278138755987,468,172.97687706742772
71.46030581019876,157,0.0
0.0,1562,0.0
60.52411099675425,156,158.51813776347487
34.17080328249678,157,207.6968945362448
94.69491427925102,312,0.0
92.29061004263853,313,25.019992006393608
175.16559369373672,312,24.186773244895647
180.0,313,24.186773244895647
177.63862534182437,312,24.08318915758459
175.30131948270053,313,24.331050121192877
180.0,312,24.331050121192877
173.27311595099866,313,96.84007434941384
100.61700845306314,468,205.9732992404598
5.572197803963795,157,0.0
0.0,1562,0.0
0.3744768867228256,156,153.00326793895613
179.58965228373094,157,146.01369798755184
179.21517539700812,312,0.0
180.0,313,37.0
180.0,312,36.0
178.45184230102205,313,37.013511046643494
179.95701742778337,312,36.013886210738214
178.40885972880542,313,37.0
180.0,312,36.0
176.71613771209363,313,122.20065466273084
107.32010575583286,937,70.09279563550022
75.96375653207353,313,0.0
0.2908390223505519,937,197.00253805471644
90.0044974315965,156,194.0025773024678
0.0,157,194.0025773024678
89.70466354605297,312,0.0
1.735704588928389,313,99.04544411531506
178.2642954110716,937,0.0
140.44988610453927,313,201.0198995124612
58.894443167581876,312,199.24858845171275
61.00188463934231,313,196.78668654154427
11.801371516835061,2500,80.05623023850174
81.64818697546532,5625,263.41032629720496
8.378302056171739,312,27.018512172212592
173.6425088042797,313,27.073972741361768
177.2138214918746,937,79.02531240052139
178.54978370906656,313,0.0
29.109855556891088,1718,100.72239075796404
150.8901444431089,157,0.0
175.28846905389847,1250,182.61708572858126
159.36535500415488,312,42.04759208325728
155.50217556686601,313,41.86884283091664
8.995285641502377,1250,175.82377541163197
118.99367437187688,1250,84.15461959987698
72.33194202745435,468,138.13037319865606
92.48955292199915,157,0.0
165.89011161181645,781,188.692872149427
148.02896420152288,156,74.96665925596525
163.33625256160377,156,74.24284477308234
157.31859288495778,157,75.23961722390672
171.6120039058088,312,15.033296378372908
179.76225954070696,313,16.0312195418814
78.1338877749278,1250,187.77912557044246
65.63687550780435,1250,93.72299611087985
50.19442890773481,468,125.0
180.0,157,0.0
77.71167683672466,1250,103.36827366266692
162.001083699225,312,10.04987562112089
174.28940686250036,313,12.0
30.57922687248901,1093,102.2154587134451
54.77243585977779,157,75.64390259630977
114.19320898728878,312,0.0
81.57303097851933,625,109.17875251164945
0.0,313,109.17875251164945
132.40351305773754,1250,221.8828519737386
55.56051327802645,468,97.86214794290998
119.12662389573006,78,14.212670403551895
162.19464978548822,79,20.248456731316587
163.95315584475037,78,34.48187929913333
154.77571510822912,78,34.36568055487916
165.74602117599215,78,39.0
140.3193377560954,78,45.17742799230607
158.78360088484226,78,44.28317965096906
157.92411536783644,78,44.64302857109943
158.72291329342232,78,45.0
149.6523033763257,79,54.230987451824994
13.728650389013595,625,95.80187889597991
79.33631200488523,625,111.80339887498948
81.75279947818227,468,133.68619973654722
128.92754359279232,157,0.0
157.59255523632734,625,228.23233776132602
66.44103634236356,937,199.04019694524018
153.78101766797573,313,68.4470598345904
61.93736108390449,312,185.0
21.93500476628033,313,254.8489748851268
104.24226627964507,625,92.63368717696602
135.43736386752073,625,0.0
80.73977846882852,625,93.2148056909416
1.6938411122268633,625,189.45184084616332
60.750861610233926,625,202.94334184693028
28.246616790015317,312,86.88498144098322
3.210881627453176,313,171.9912788486672
45.57319866246364,312,190.2761151589973
26.355516601837834,313,276.3548443577568
0.138057030846781,312,207.24140512938047
92.76576183424952,313,0.0
12.351559150030187,625,280.49242414011826
74.69766174096348,312,97.12878049270464
177.63385141169886,313,98.00510190801293
179.41536947929484,312,97.0
90.0,156,0.0
0.0,157,0.0
179.4153694792948,312,98.00510190801293
178.86446550007625,313,104.00480758118829
178.91432693760183,312,105.04284840006957
84.01238453716488,313,128.1327436684316
179.87166513527802,312,191.637678967368
97.49585763972985,156,0.0
0.0,157,0.0
29.027867852994838,312,208.1465829649865
107.2265837696867,313,96.89685237405806
26.58182356808868,468,204.9634113689563
28.252349894563515,157,97.0
62.56070694899604,312,162.265215003093
16.483090156396955,313,253.4758371127315
124.38930707942018,156,35.05709628591621
176.72951207681643,156,35.0
180.0,156,35.0
178.84266693187047,157,99.02019995940222
49.92136793303524,156,107.71258050942797
132.30678958988125,156,107.01868995647442
123.38111012707091,156,104.29285689825551
54.99181319106147,157,103.00485425454472
127.756064342899,156,104.20172743289815
132.21286656594455,156,108.85311203635843
126.66267690218591,156,104.65180361560904
126.14071800384195,157,105.11898020814318
105.48120008696657,156,192.41881404893857
37.31961980334276,156,182.08239892971534
31.73816928159944,156,249.899979991996
58.12148616255752,157,197.3068675946177
158.48991174117276,78,34.058772731852805
153.0041616059134,78,34.92849839314596
180.0,78,34.92849839314596
168.00425626828363,78,34.713109915419565
174.88616775271652,78,35.22782990761707
157.09065791430825,78,35.4400902933387
158.23231374666574,78,35.608987629529715
99.41743129568101,78,35.35533905932738
93.09878946738277,78,55.46169849544819
156.24230046930975,78,46.09772228646444
158.49219735548112,78,55.02726596879042
155.61642679414308,78,54.230987451824994
155.41408851368183,78,54.20332093147061
154.43851734057125,79,54.644304369257
155.92895236344975,78,54.91812087098393
177.61647545271916,79,35.90264614203248
21.84762817450887,156,173.11845655504212
171.02737338510363,78,14.0
175.91438322002512,78,14.035668847618199
179.53184880081622,156,226.71568097509268
85.44623202084136,78,15.0
180.0,79,16.0
147.43323518809564,156,183.91846019364124
63.7105336776932,156,100.60318086422517
83.72270151040243,313,117.0
0.0,312,30.0
93.76403486490574,313,380.8214804865923
162.51352935777248,78,19.313207915827967
156.25050550713325,78,14.142135623730951
88.26429541107161,156,233.45235059857504
44.888094322933796,313,155.08062419270823
63.168349336888085,156,210.71782079359116
155.01595960288267,78,0.0
0.0,78,0.0
86.18592516570965,156,210.4661492972207
23.783221034353375,157,248.2438317461282
62.40270413135628,78,0.0
0.0,78,0.0
13.069317896282177,156,229.95651762887695
20.922631198260433,234,292.7456233660889
171.5931085936663,79,25.0
41.164973516407144,312,92.61209424259879
59.36558507946694,156,185.5640051303054
58.62683501361328,157,241.3503677229434
93.08252381004455,312,111.64676439557037
21.769260897868833,156,204.53361581901396
28.710636999295687,157,234.77648945326703
117.46142741232718,156,175.82377541163197
125.93349726018383,78,22.20360331117452
162.70755060012232,78,15.0
99.28046541548565,234,176.1050822662424
46.15036306132966,79,0.0
167.56676481190436,312,260.0999807766237
77.8370259183985,156,212.00235847744713
90.24590312327071,157,111.00450441310929
134.2014099383821,312,215.72436116489024
47.68707228872711,156,243.5939243905726
22.43677540303183,78,12.649110640673518
176.82016988013575,79,11.40175425099138
164.74488129694222,78,13.0
170.53767779197437,78,12.165525060596439
106.42869207106784,156,190.07893097342483
56.35655919855337,234,39.44616584663204
149.53445508054014,79,0.0
153.43494882292202,234,167.70509831248424
105.94539590092286,78,16.278820596099706
90.8578805011129,156,283.0989226401259
102.61836027691734,78,18.384776310850235
162.81429385577522,79,22.090722034374522
39.969741930982224,312,246.78127967899024
28.444942029491614,234,274.60881267723363
106.71922880922543,79,0.0
147.11262292598502,156,158.38244852255568
57.11262292598501,78,17.0
176.6335393365702,78,17.029386365926403
135.30408796928634,156,187.76847445724215
41.14282082371828,157,307.001628660175
82.61713402735306,312,199.5720421301541
59.40229243046463,156,186.02419197512995
62.21403680282461,78,17.26267650163207
173.1718503184229,79,18.027756377319946
156.62283003355327,156,205.64532574313475
52.20272305466602,78,18.867962264113206
154.3348085378264,78,18.110770276274835
112.86896706754183,156,252.04959829366916
21.90634475283366,78,39.824615503479755
152.84698540829277,78,39.395431207184416
151.7483576966028,78,40.11234224026316
151.81796103797052,79,39.11521443121589
0.09051458427925496,156,145.64683312726027
24.49753838983949,156,262.4804754643667
39.59233790544384,157,184.54809671194118
82.84645453797611,312,132.2800060477773
46.738550594266464,234,117.34564329364768
143.79741070999108,79,9.219544457292887
45.930476096078365,156,198.36330305779848
79.74593212578361,156,177.05366418123066
19.83780069941895,234,225.28204544525957
177.06432655357884,79,18.027756377319946
33.20299418032215,234,229.83907413666634
33.38962472388771,78,17.029386365926403
135.09597274024625,156,247.8911051248108
97.6691932781791,78,9.219544457292887
157.16634582208246,79,8.94427190999916
125.96767648431384,312,284.01584462842914
28.183432284078556,156,160.0124995117569
174.52019836380342,78,12.041594578792296
175.23635830927384,79,13.0
11.449337988500034,312,80.60397012554654
5.943984158411993,156,173.95401691251627
150.1027121042735,78,17.69180601295413
158.5411155497718,79,19.313207915827967
5.9476224413758985,156,242.85180666406416
30.227814916918362,156,170.88007490635061
35.96706820366127,156,253.4442739538615
176.60698893091126,78,18.0
180.0,79,19.0
62.86954829965322,234,271.9191056178289
36.59277390837235,78,18.24828759089466
170.3018940220978,156,243.00205760445732
38.30143486860705,157,210.8459153030952
4.3755835727506565,78,18.027756377319946
154.65382405805332,78,17.4928556845359
175.6012946450045,78,17.88854381999832
173.99099404250546,78,25.632011235952593
33.728598642910356,78,48.27007354458868
161.79954828321843,78,48.02082881417188
131.9926604162636,78,48.83646178829912
142.8152935467669,79,49.193495504995376
103.70696100407982,234,94.36630754670864
49.72798781884221,78,0.0
101.13630943118173,156,258.87448696231155
117.47131688878125,313,171.4788616710526
48.06994852798857,78,18.24828759089466
173.4000830180861,78,20.024984394500787
80.01257842498644,156,217.68095920406083
56.19714565215786,157,227.18494668441394
35.00746226367783,312,278.29660436304283
20.017554767544993,156,97.01546268507923
73.9301021765712,157,340.1249770305027
12.210353668308016,312,269.2080979465514
27.135775271894683,156,257.0
55.96674358428504,78,10.63014581273465
180.0,79,10.63014581273465
113.21209942085929,312,314.3405796266209
25.845840747670138,156,313.9585959963511
45.82348787460498,157,304.0148022712052
54.32725320409491,234,219.78398485785993
71.97724391848031,78,0.0
71.97724391848031,156,219.78398485785993
83.77967812626383,313,273.7882393383616
11.802434207783548,78,0.0
135.0,78,1.4142135623730951
45.99758688490351,156,402.06094065452316
179.00241311509652,78,0.0
0.0,79,0.0
155.19059162454047,156,233.5551326774901
111.2330740004622,78,48.093658625644196
176.42366562500263,78,48.0
158.19859051364818,78,48.46648326421054
173.09545694295073,78,47.885279575251516
107.17545145318105,78,45.967379738244816
135.33747123854917,79,47.01063709417264
176.93599676988515,234,227.63567382991621
168.3374825643233,78,14.560219778561036
38.13657367190588,156,192.62658175859323
87.27490615123021,157,127.8632081562167
36.32929494673397,312,146.21901381147393
0.0,156,146.21901381147393
0.646805446333417,157,276.2607463973121
106.17960253946467,312,80.2807573457052
17.102728969052365,156,218.38727069131113
48.41267935158686,157,219.20310216782974
39.66784111834045,312,150.65191668213185
105.03082061936965,156,278.9874549150911
110.55777542581919,78,13.892443989449804
165.6889587373936,79,14.560219778561036
79.92057524080371,312,146.76852523616907
126.7327805928636,156,101.35580891098448
60.653960210006694,157,226.07963198837706
0.0,312,226.07963198837706
53.54379854610811,156,165.89454481688057
39.47320430065476,157,315.9905061864992
34.349315531038734,234,213.21585306913744
150.1884569768679,78,24.0
87.55033737987296,156,187.17104476921637
153.02220621693732,78,44.77722635447622
157.0750770432974,79,44.204072210600685
48.19273706617972,78,55.14526271584895
146.00241570634358,78,53.41348144429457
147.59726141554523,78,54.08326913195984
147.80243301094714,78,54.3415126767741
142.936766082784,78,58.89821729050889
140.7917880091718,78,59.00847396772772
138.8497441470135,78,58.89821729050889
147.96312236459988,79,55.65968020030299
159.74190708913704,312,162.15116404145854
28.752061160741277,156,178.44046626256053
54.35034362842379,157,272.0
29.001526255275024,234,185.02432272541898
90.92903931942206,78,0.0
90.92903931942206,156,185.02432272541898
54.078940482019284,157,109.85900054160332
153.49855776655102,312,132.00378782444085
51.99263137224047,156,183.17477992343814
5.2198587391529685,157,287.31167745150907
55.27100372047907,78,17.88854381999832
173.99099404250546,78,17.08800749063506
72.62378490028077,156,162.24980739587951
93.94518622903759,78,16.1245154965971
176.50536107274667,78,16.278820596099706
72.76688424153012,157,277.8488797889961
108.25023608943712,234,135.56548233234005
65.13630342824813,78,0.0
129.0793792859532,156,191.94269978303421
42.56405400754964,157,178.89941307897016
42.765936954990224,156,205.526154053444
39.262724540539395,156,102.18121158021175
152.1948249781292,78,21.840329667841555
174.83890196663972,78,21.37755832643195
163.77537010143192,78,21.095023109728988
161.2125867130513,79,21.93171219946131
155.41367048366382,78,21.2602916254693
168.55895613123255,78,24.186773244895647
49.29343072929731,156,146.44111444536333
69.74297834008988,78,15.620499351813308
169.61114218453037,78,15.620499351813308
161.9958383940866,78,16.15549442140351
168.8182457898033,79,16.278820596099706
160.4996855733246,78,32.38826948140329
159.13577785357802,78,32.2490309931942
157.31347332576968,78,32.802438933713454
151.04705615533663,78,33.37663853655727
134.95349369567353,156,208.806130178211
52.40475383971378,157,246.05080776132397
5.42699916291393,312,161.4465855941215
22.181050872537156,156,211.0852908186641
45.12138918175078,78,15.811388300841896
176.49646835521554,79,15.524174696260024
157.1925277592448,156,184.6212338816963
61.617818568635926,156,178.3732042656632
54.74223504324337,156,270.135151359463
25.901056969228,78,0.0
0.0,79,0.0
15.164460899738446,156,221.72054483064937
23.57914260004503,156,170.8391055935379
56.85455139405263,156,129.634100452003
56.81524900931174,157,182.42806801586207
108.83145307805512,78,16.0312195418814
172.8473312500053,78,16.0312195418814
97.28761818301825,156,185.3887806745597
93.7112838080209,78,16.0
158.19859051364818,78,16.15549442140351
161.99583839408663,78,15.620499351813308
160.7693276243387,79,11.661903789690601
81.67434966957316,312,85.27602242131137
50.999963300940266,234,198.00252523642217
179.7106298365594,79,15.0
86.26860300083955,156,138.2931668593933
57.03578554331527,312,124.90796611905904
96.85268240556474,157,183.84776310850236
140.37840554910045,78,30.364452901377952
154.9052272990818,78,29.274562336608895
149.80627077015217,78,29.206163733020468
159.654544778075,78,30.528675044947494
168.8023805875551,78,45.880278987817846
127.83063708138323,78,49.39635614091387
154.18738296916067,78,48.25971404805462
119.72954516788849,79,48.010415536631214
4.2314766536390565,156,143.4015341619468
133.2865346826342,156,244.72433471152803
84.36355888604263,78,49.01020301937138
176.49355481296874,78,49.040799340956916
177.66269414087617,78,49.0
178.8542371618249,79,50.00999900019995
125.07556026023573,312,132.5745073534124
93.41404347228803,156,217.60744472558838
55.06718885226256,157,95.08417323613851
76.81821880734492,78,44.64302857109943
153.3191219331726,78,44.598206241955516
153.12814704567205,78,44.94441010848846
151.55089859183022,78,45.39823785126467
152.81681200222758,78,43.829214001622255
154.20528776955362,78,44.77722635447622
170.22636765486357,78,44.598206241955516
171.9543512499983,79,45.17742799230607
21.076806212673993,312,268.79360111431225
24.70602627242316,156,215.40659228538016
38.8724307776709,157,185.9946235782099
167.7249440841137,78,53.46026561849464
146.380755403973,78,54.56189146281496
144.53835278175166,78,54.589376255824725
146.16775961566324,78,53.23532661682466
67.06186955923489,156,145.41320435228707
71.20634580407706,157,210.1547049199708
102.72495465653279,234,157.54681843820268
145.60385825987137,78,0.0
127.6569918829932,156,276.62610144380807
64.96335188952148,157,241.96280705926685
139.31764320444765,78,50.695167422546305
153.32185843064164,78,49.16299421312742
151.93163209933138,78,49.92995093127971
154.49470635692043,78,49.39635614091387
152.81444117508806,78,50.15974481593781
151.46358976552096,78,49.24428900898052
154.06339652079043,78,49.678969393496885
154.28048704487838,79,40.26164427839479
160.0910652572532,156,186.86893802876924
174.47245984834382,78,0.0
0.0,78,0.0
150.15406805031262,234,210.98341167020692
125.55652508718704,79,10.04987562112089
119.25015207534801,156,150.08331019803634
60.749847924652,79,10.04987562112089
127.67943567482735,155,166.20770138594662
63.741750600171954,79,10.04987562112089
89.42916424149098,155,189.76301009416983
148.4195490512574,625,167.2423391369542
88.28727931896303,625,167.0478973228936
97.15867396048752,1093,101.11874208078342
98.53076560994813,78,0.0
0.0,79,0.0
146.65155573107825,1250,325.61480310329875
122.76505580944348,3750,153.11433636338563
80.58707938445058,1875,122.03687967167957
124.51829577231547,625,141.0319112825179
169.5967072715617,625,143.95138068111746
95.13358096562942,625,97.12363255150623
76.59759156511893,1250,256.43907658545334
